Date,Close,ATR
2019-08-22,10.7253,0.10547430890771409
2019-08-23,10.5041,0.11190358370250365
2019-08-26,10.5059,0.10578665528086695
2019-08-27,10.5157,0.10045401172926086
2019-08-28,10.5156,0.09487873791309477
2019-08-29,10.71,0.10040774463084753
2019-08-30,10.7261,0.09572394286658126
2019-09-03,10.6497,0.09465038222152271
2019-09-04,10.8324,0.09954206321485123
2019-09-05,11.0853,0.10806200708849754
2019-09-06,11.1414,0.10517521019771671
2019-09-09,11.2309,0.10430435985349464
2019-09-10,11.1792,0.10138187851373054
2019-09-11,11.3348,0.10439401282819594
2019-09-12,11.3786,0.10102766141473273
2019-09-13,11.4006,0.09663721438806695
2019-09-16,11.2955,0.09710737130786234
2019-09-17,11.2963,0.091756938536911
2019-09-18,11.2986,0.08678708821840636
2019-09-19,11.3647,0.08563780108419985
2019-09-20,11.3115,0.08383569442591564
2019-09-23,11.2028,0.08521704951216545
2019-09-24,11.147,0.08358276364648053
2019-09-25,11.1271,0.08004482142051597
2019-09-26,11.2106,0.08023677634520794
2019-09-27,11.2179,0.07618472206703314
2019-09-30,11.2056,0.07263556161921048
2019-10-01,11.1824,0.06988913478959248
2019-10-02,10.9458,0.0791508709888998
2019-10-03,10.9519,0.07509248038394464
2019-10-04,11.1142,0.0799373526005446
2019-10-07,11.1558,0.07780749551989262
2019-10-08,10.9633,0.08417931307373762
2019-10-09,10.9951,0.08126934616854094
2019-10-10,11.1082,0.08303771873440909
2019-10-11,11.3322,0.09086896874750824
2019-10-15,11.421,0.09075402587068133
2019-10-16,11.3998,0.0868899079682331
2019-10-17,11.3881,0.08271268539252633
2019-10-18,11.2651,0.08495087230358497
2019-10-21,11.3843,0.08685360384101382
2019-10-22,11.3939,0.08256173222959062
2019-10-24,11.4828,0.08291385858345443
2019-10-25,11.5901,0.08426864554988955
2019-10-28,11.6937,0.08534261068338378
2019-10-29,11.5643,0.08779024556999887
2019-10-30,11.5426,0.08411856221905872
2019-10-31,11.516,0.08092308404025522
2019-11-01,11.6376,0.08318291437443245
2019-11-04,11.8134,0.08832831161092304
2019-11-05,11.8876,0.08754340489301243
2019-11-06,11.8495,0.08479654735584297
2019-11-07,11.9712,0.0868467403746519
2019-11-08,11.8903,0.0865163657259663
2019-11-12,11.9058,0.08257101000571904
2019-11-13,11.825,0.08247262051223113
2019-11-14,11.7826,0.08024636277584134
2019-11-15,11.9207,0.0834604551525186
2019-11-18,11.9223,0.07891265019116878
2019-11-19,11.8939,0.07610639074149989
2019-11-20,11.8705,0.07317825683288842
2019-11-21,11.7471,0.0759683546560962
2019-11-22,11.7857,0.07389233426388928
2019-11-25,11.9283,0.07770942800139778
2019-11-26,11.9483,0.07450334771875586
2019-11-27,12.0162,0.07413649496513315
2019-11-29,11.9932,0.07129557782792632
2019-12-02,11.8524,0.07515693557835355
2019-12-03,11.7295,0.07780932867102279
2019-12-04,11.8398,0.07961436636865134
2019-12-06,11.9539,0.08153023530627809
2019-12-09,11.9061,0.07965633297295834
2019-12-11,11.9322,0.07668098058349589
2019-12-12,12.0451,0.07869314868502077
2019-12-13,12.1499,0.08014352955609279
2019-12-16,12.2971,0.0838688896133734
2019-12-17,12.2888,0.07967061734217051
2019-12-18,12.3157,0.07673891596584914
2019-12-19,12.3521,0.07449786478078699
2019-12-20,12.419,0.07407576112883157
2019-12-23,12.4743,0.07303266316459087
2019-12-24,12.4387,0.07095307053354782
2019-12-26,12.4973,0.07026678876461631
2019-12-27,12.5354,0.06847974476575854
2019-12-30,12.4298,0.07054198136231522
2020-01-02,12.5897,0.07550631617362646
2020-01-03,12.5648,0.07269485392727369
2020-01-06,12.5316,0.0705006952012876
2020-01-07,12.6288,0.0719839900237205
2020-01-08,12.7288,0.07354043513279572
2020-01-09,12.8469,0.07601596668013313
2020-01-10,12.8561,0.07230396829639878
2020-01-13,12.948,0.07339263678942448
2020-01-14,13.0016,0.07229304579462822
2020-01-15,12.9682,0.07013232091310324
2020-01-16,13.0535,0.07097496979367857
2020-01-17,13.1055,0.06992080475502772
2020-01-21,13.1163,0.06663631545450635
2020-01-22,13.1796,0.06645096458806324
2020-01-23,13.1632,0.0636703553329264
2020-01-24,13.2207,0.06332755780146515
2020-01-27,12.8875,0.07832047179250284
2020-01-28,13.0275,0.08174711236407814
2020-01-29,13.0432,0.07807782822693962
2020-01-30,12.8365,0.08522350465158339
2020-01-31,12.7529,0.08513330994615421
2020-02-03,12.8119,0.0836814593546202
2020-02-04,13.0869,0.09431026743769608
2020-02-05,13.1835,0.09443747480531414
2020-02-06,13.2855,0.09485761510340798
2020-02-07,13.2974,0.09024885861035119
2020-02-11,13.4542,0.09394614431768085
2020-02-12,13.5432,0.09367135851701985
2020-02-13,13.5448,0.08855628295182959
2020-02-14,13.5489,0.08386426715256154
2020-02-18,13.3676,0.08927736350872782
2020-02-19,13.5605,0.09503417673437939
2020-02-20,13.4396,0.09647116693637113
2020-02-21,13.4082,0.09285610205770296
2020-02-24,12.9183,0.11491409666945249
2020-02-25,12.8217,0.11389664684221448
2020-02-26,12.7517,0.11145794421209693
2020-02-27,12.3676,0.1266047252521135
2020-02-28,11.9448,0.14306001846081473
2020-03-02,12.2436,0.15171223974044226
2020-03-03,12.3472,0.14903933750842172
2020-03-04,12.2368,0.14689270762847345
2020-03-05,12.3551,0.14530422385849812
2020-03-06,11.8895,0.1630984337799581
2020-03-09,11.3325,0.1849818542832698
2020-03-10,11.2478,0.17941064011849078
2020-03-11,11.133,0.1758211600888273
2020-03-12,10.2671,0.21415887365004566
2020-03-13,10.2397,0.20378338060997908
2020-03-16,9.9794,0.20692319281532143
2020-03-17,9.9615,0.19642190427185774
2020-03-18,9.562,0.2077040207557107
2020-03-19,9.7779,0.20815935293802687
2020-03-20,9.8799,0.2022616110827186
2020-03-23,9.7372,0.1989526326757656
2020-03-24,10.4503,0.2275163754146943
2020-03-25,10.842,0.23663768792477183
2020-03-26,11.0614,0.23568003859233413
2020-03-27,10.804,0.23688670311888996
2020-03-30,10.9684,0.23285966404441266
2020-03-31,11.1467,0.22982857158874515
2020-04-01,10.6648,0.24383253987201933
2020-04-02,10.6776,0.2309973987349478
2020-04-03,10.5228,0.22676420990603843
2020-04-07,11.4809,0.26739397611574606
2020-04-08,11.5291,0.2552165329717729
2020-04-09,11.754,0.25353228113655507
2020-04-13,11.4842,0.2544360432973851
2020-04-14,11.9072,0.2638007075757649
2020-04-15,11.6445,0.26373955715478337
2020-04-16,11.8434,0.26013735952919803
2020-04-17,11.9454,0.25135195065293187
2020-04-20,12.0176,0.2413990644910673
2020-04-21,11.4177,0.2613157831578176
2020-04-22,11.6876,0.26179268409411327
2020-04-23,11.8474,0.25612642385971823
2020-04-24,11.793,0.24491940029898435
2020-04-27,12.1251,0.2497627669543354
2020-04-28,12.1615,0.23790927988907884
2020-04-29,12.4993,0.24345876434509675
2020-04-30,12.3692,0.237161055209014
2020-05-05,12.2405,0.23113544102549463
2020-05-07,12.449,0.22987791652304523
2020-05-08,12.5699,0.22382358782262363
2020-05-11,12.545,0.21277227737993626
2020-05-12,12.5921,0.20356826196357075
2020-05-13,12.1258,0.21816446964180056
2020-05-14,11.9599,0.2152608879932417
2020-05-15,12.073,0.20958528310141977
2020-05-18,12.5377,0.2237583229369217
2020-05-19,12.6327,0.21660508277003993
2020-05-20,12.8255,0.21528257817105492
2020-05-21,12.6565,0.212711323827026
2020-05-22,12.5902,0.20457736138862828
2020-05-26,12.9031,0.21059528575841638
2020-05-27,12.7774,0.20587888099221716
2020-05-28,13.0103,0.2073800542709813
2020-05-29,12.8189,0.2064922734778397
2020-06-01,12.9801,0.20397603606157597
2020-06-02,13.0272,0.1952607007221125
2020-06-04,13.3895,0.20454066179583075
2020-06-05,13.7158,0.21130506947571578
2020-06-08,13.7023,0.20031589894640936
2020-06-09,13.6649,0.1912650156693703
2020-06-10,13.6581,0.18101695924090036
2020-06-11,13.1725,0.19793823928680557
2020-06-12,13.0736,0.19243611488083656
2020-06-15,12.9432,0.18898966405344533
2020-06-16,13.3816,0.20284579383082912
2020-06-17,13.4726,0.1966321386169146
2020-06-18,13.4022,0.18961924202592342
2020-06-19,13.5014,0.18459595080147453
2020-06-22,13.4321,0.1781906202004455
2020-06-23,13.6676,0.1813744746341987
2020-06-24,13.2903,0.1922592260448455
2020-06-25,13.2706,0.18267260237449326
2020-06-26,13.2739,0.17270745779696017
2020-06-29,13.2855,0.16375704347391246
2020-06-30,13.5075,0.16699276328125684
2020-07-01,13.5272,0.15880983198704274
2020-07-02,13.723,0.16086484132128828
2020-07-07,14.0164,0.1682279056929787
2020-07-08,13.9206,0.16420413315414398
2020-07-09,13.9283,0.15550945908933927
2020-07-10,14.1138,0.1571756002511667
2020-07-13,14.3327,0.16060473357078758
2020-07-14,14.0031,0.1699933594841453
2020-07-15,14.1373,0.16800483951267914
2020-07-16,14.1738,0.16069901509487522
2020-07-17,14.3033,0.15896573647839626
2020-07-20,14.4762,0.1597398622296374
2020-07-21,14.5908,0.15723209210564346
2020-07-22,14.5377,0.15144697587727945
2020-07-23,14.609,0.1469943661061213
2020-07-24,14.2687,0.15773356798956606
2020-07-29,14.3711,0.15465948087891251
2020-07-30,14.3577,0.14681173194090086
2020-07-31,14.3269,0.14036663572173358
2020-08-03,14.6312,0.1494740448486086
2020-08-04,14.6286,0.1413143756900947
2020-08-05,14.6827,0.13646913259605598
2020-08-06,14.7002,0.12985973634053327
2020-08-07,14.7029,0.12279530654364888
2020-08-10,14.6684,0.11789001173554504
2020-08-11,14.7235,0.11440167775015415
2020-08-13,14.7772,0.11102936231951446
2020-08-14,14.6866,0.10989439774618408
2020-08-17,14.7775,0.1088391534269305
2020-08-18,14.7637,0.10355920045866795
2020-08-19,14.8455,0.10235035598872036
2020-08-20,14.7296,0.10310311398935969
2020-08-21,14.7639,0.09928071876766777
2020-08-24,14.939,0.10349290105841623
2020-08-25,14.9767,0.09983773988845229
2020-08-26,15.2441,0.10914675433921865
2020-08-27,15.2516,0.1034997124314128
2020-08-28,15.2917,0.09997750618518113
2020-08-31,15.2606,0.09615097806373898
2020-09-01,15.3171,0.09394814594906331
2020-09-02,15.4907,0.09837324895193773
2020-09-03,15.133,0.11278029067696721
2020-09-08,14.6394,0.13393694119510352
2020-09-09,14.7555,0.13294600001758933
2020-09-10,14.8011,0.1280934444610177
2020-09-11,14.628,0.13059380865764672
2020-09-14,14.8163,0.13379970817668926
2020-09-15,14.8899,0.13045527994462844
2020-09-16,14.906,0.124102208836553
2020-09-17,14.6654,0.13057430834567238
2020-09-18,14.5545,0.12948129121535099
2020-09-21,14.3277,0.13488788614786057
2020-09-22,14.4803,0.1358718924729844
2020-09-23,14.5327,0.13123456511335196
2020-09-24,14.4202,0.1301937559403833
2020-09-25,14.3991,0.12413299172144714
2020-09-28,14.794,0.13917560329253856
2020-09-29,14.8021,0.13189362533181415
2020-09-30,14.9289,0.13161064614671242
2020-10-01,14.9658,0.12634894358298823
2020-10-02,14.7438,0.13166289116172814
2020-10-05,14.9037,0.13323161943052578
2020-10-06,14.911,0.12623541835103202
2020-10-07,15.007,0.12455567288708126
2020-10-08,15.1751,0.12697480217113855
2020-10-09,15.3937,0.13206509093942093
2020-10-14,15.489,0.13002258588722623
2020-10-15,15.3537,0.1303157755601588
2020-10-16,15.488,0.13053712136237264
2020-10-19,15.4471,0.12555728128667562
2020-10-20,15.4105,0.12061521010407356
2020-10-21,15.3901,0.1150476984316155
2020-10-22,15.3465,0.11107838185207486
2020-10-26,14.9863,0.124918471749203
2020-10-27,15.0519,0.12162300109646472
2020-10-28,14.6218,0.13876061214668445
2020-10-29,14.6707,0.13376835591630665
2020-10-30,14.462,0.13793122503207247
2020-11-02,14.5712,0.13633504586362213
2020-11-03,14.8399,0.14368865442676226
2020-11-04,15.2319,0.15748372918084513
2020-11-05,15.425,0.15946241089302238
2020-11-06,15.3792,0.15314783251007089
2020-11-09,15.8965,0.17337850848175101
2020-11-10,15.5562,0.1826519246772168
2020-11-12,15.5806,0.17386015108403133
2020-11-13,15.6317,0.16704014269046905
2020-11-16,15.9366,0.1746990236521149
2020-11-17,15.8775,0.16827685567143771
2020-11-18,15.9635,0.16370591924524394
2020-11-19,15.8706,0.15977225706495032
2020-11-20,15.9151,0.15336824278356076
2020-11-23,15.9586,0.1472644515178042
2020-11-24,16.2883,0.15739975976681997
2020-11-25,16.1969,0.1537331064464394
2020-11-27,16.4064,0.15683126719941645
2020-11-30,16.2651,0.1559684190216708
2020-12-01,16.5682,0.1641423957426923
2020-12-02,16.6161,0.15768448486809583
2020-12-03,16.7809,0.15807979126431285
2020-12-04,16.9102,0.15648091397185054
2020-12-08,16.9272,0.1487319743067453
2020-12-09,16.9927,0.14410797573414702
2020-12-14,16.8828,0.14220753263780497
2020-12-15,16.8682,0.13511822526903605
2020-12-16,17.0113,0.135561657198534
2020-12-17,17.0022,0.1285360095763916
2020-12-18,16.9828,0.12247289793325726
2020-12-21,16.8625,0.12235218138140963
2020-12-22,17.0369,0.1252437268602207
2020-12-23,17.1458,0.12433574203465282
2020-12-24,17.0767,0.12126708969939391
2020-12-28,17.2552,0.12444669582720587
2020-12-29,17.1719,0.12216076828124951
2020-12-30,17.2752,0.12111294782118
2021-01-04,17.117,0.12317333960889255
2021-01-05,17.2966,0.12630815407506563
2021-01-06,17.4487,0.12774103440422868
2021-01-07,17.603,0.12921653249288298
2021-01-08,17.843,0.1353711695766123
2021-01-11,17.8063,0.12988943793346658
2021-01-12,17.7378,0.1264789136038292
2021-01-13,17.7578,0.12056341840361591
2021-01-14,17.9455,0.12429322849230422
2021-01-15,17.7593,0.12773249357606534
2021-01-19,17.8215,0.12409179948850589
2021-01-20,18.1067,0.13304225507247844
2021-01-21,18.2208,0.1319899075684518
2021-01-22,18.1314,0.12962380159242662
2021-01-25,18.086,0.12494470150395823
2021-01-26,18.109,0.1192811069759604
2021-01-27,17.9065,0.12390437881062956
2021-01-28,17.9951,0.12194302443226113
2021-01-29,17.693,0.13195174529713596
2021-02-01,17.8788,0.1349433150028506
2021-02-02,18.2082,0.14574646416935955
2021-02-03,18.2596,0.14050499393772808
2021-02-04,18.3312,0.13667693871896527
2021-02-05,18.4601,0.1362448865679117
2021-02-08,18.5941,0.13612017064747217
2021-02-09,18.6509,0.1317134945003902
2021-02-10,18.5451,0.13027385591703505
2021-02-11,18.7451,0.13414753058831097
2021-02-16,18.8746,0.13388933444451592
2021-02-17,18.7212,0.13497326030870957
2021-02-18,18.635,0.1322636347360033
2021-02-19,18.8903,0.13909898836178097
2021-02-22,18.716,0.14105460011945978
2021-02-23,18.4494,0.14802934455726774
2021-02-24,18.7087,0.15421104763741963
2021-02-25,18.6359,0.14968821165756296
2021-03-01,18.7948,0.15019997767658722
2021-03-02,18.6751,0.14850553447233225
2021-03-03,18.6069,0.144044115890536
2021-03-04,18.3663,0.1494083316743952
2021-03-05,18.0803,0.15699675769248433
2021-03-08,18.4218,0.1672469378206798
2021-03-09,18.6142,0.16864433016397534
2021-03-10,18.635,0.16043075626597667
2021-03-11,18.9028,0.16639571425120012
2021-03-12,18.7853,0.16367928568168896
2021-03-15,18.9326,0.16276932536603964
2021-03-16,19.2316,0.17033769617903746
2021-03-17,19.0539,0.17074671305797992
2021-03-18,19.0444,0.16178856233253647
2021-03-19,18.9087,0.16033919775850664
2021-03-22,19.1254,0.1634703534385896
2021-03-23,18.9704,0.1629997782475567
2021-03-24,18.8676,0.15965534612269255
2021-03-25,18.7172,0.15914116022698746
2021-03-26,18.9701,0.16434998465882156
2021-03-29,19.1154,0.16329165217777605
2021-03-30,19.0499,0.15785878261234404
2021-03-31,19.2209,0.15858885024499156
2021-04-01,19.4936,0.1649283585647143
2021-04-05,19.9113,0.17897122753334135
2021-04-07,19.8536,0.17223393711482238
2021-04-08,19.951,0.16807649616399892
2021-04-09,19.9652,0.15952780193266555
2021-04-12,19.9645,0.15070403515862843
2021-04-16,20.0992,0.1498149220942601
2021-04-19,19.9553,0.14948631531124557
2021-04-20,19.7503,0.15257040890506537
2021-04-21,19.9232,0.15369983063256185
2021-04-22,20.0516,0.15229428448630836
2021-04-23,20.095,0.14624460201484668
2021-04-26,20.2214,0.14514212412513297
2021-04-27,20.1467,0.1412286727848478
2021-04-28,20.0578,0.1383215242968006
2021-04-29,19.91,0.13884810628031172
2021-04-30,19.802,0.1371343225980722
2021-05-05,19.554,0.1432935268981794
2021-05-06,19.5663,0.1360161087371694
2021-05-07,19.8713,0.14540410269621576
2021-05-10,19.5999,0.15240387476864822
2021-05-11,19.2413,0.16385921505927906
2021-05-12,18.8895,0.17430036977820787
2021-05-13,19.0108,0.17135590479052953
2021-05-14,19.3799,0.1823416878577223
2021-05-17,19.2525,0.17928937186562652
2021-05-18,19.406,0.17785662898420268
2021-05-19,19.2065,0.17905903848508034
2021-05-20,19.6318,0.1927390919025759
2021-05-21,19.5585,0.1861035867968772
2021-05-24,19.7816,0.1881589430859397
2021-05-25,19.8092,0.17923900180338745
2021-05-27,19.8577,0.17197572392542151
2021-05-28,19.9218,0.16598262815178697
2021-06-01,19.8302,0.1618502599211321
2021-06-02,19.8864,0.1559808010366246
2021-06-04,19.9649,0.15167631209014554
2021-06-07,19.9294,0.14522207252958183
2021-06-08,19.9552,0.13858751294460506
2021-06-09,19.9312,0.13222154000323813
2021-06-10,19.9872,0.1279870100030583
2021-06-11,20.0084,0.12205439833622171
2021-06-14,20.0839,0.11946804287309817
2021-06-15,20.0976,0.11359204049125937
2021-06-16,20.1078,0.107848038241745
2021-06-17,20.17,0.10531203611720365
2021-06-18,19.8859,0.11524470077735913
2021-06-21,20.0706,0.11910332851195025
2021-06-22,20.1754,0.11830869915017528
2021-06-23,20.3101,0.11921932697516546
2021-06-24,20.4443,0.12005158658765627
2021-06-25,20.4483,0.11360427622167542
2021-06-28,20.5616,0.11358737198713781
2021-06-29,20.6546,0.11244362909896348
2021-06-30,20.6306,0.1075300941490209
2021-07-01,20.5423,0.10646175558518642
2021-07-02,20.7182,0.11031943583045377
2021-07-06,20.7314,0.10492391161765084
2021-07-07,20.8067,0.1032781387500035
2021-07-08,20.6609,0.10564046437500318
2021-07-09,20.8961,0.11283821635416963
2021-07-12,20.936,0.10878609322338238
2021-07-13,21.066,0.10996464359986109
2021-07-14,20.9969,0.10769438562209095
2021-07-15,20.8803,0.10818914197641932
2021-07-16,20.8177,0.10565641186661824
2021-07-19,20.4395,0.1207977223184728
2021-07-20,20.6287,0.12459784885633542
2021-07-21,20.8157,0.1280646350309835
2021-07-22,20.8858,0.1248443775292622
2021-07-23,21.0292,0.12587524544430317
2021-07-27,20.7473,0.13454328736406415
2021-07-29,21.1112,0.14728532695494956
2021-07-30,20.987,0.14600280879078578
2021-08-02,21.1716,0.14814709719129784
2021-08-03,21.1257,0.14246670290289257
2021-08-04,21.2353,0.140640774963843
2021-08-05,21.4776,0.14628850968807397
2021-08-06,21.5423,0.1417558147054033
2021-08-09,21.5223,0.1349916027773253
2021-08-10,21.3614,0.13643095817858508
2021-08-11,21.2687,0.13400146050199707
2021-08-13,21.2667,0.1266680460296638
2021-08-16,21.1519,0.12600871013912687
2021-08-17,20.9282,0.13143600402028655
2021-08-18,21.0227,0.1293840037969373
2021-08-19,20.9147,0.12819600358599634
2021-08-20,20.9651,0.1238740033867743
2021-08-23,21.3083,0.13605878097639795
2021-08-24,21.3021,0.12884440425548693
2021-08-25,21.2137,0.12659749290795988
2021-08-26,21.2039,0.120108743301962
2021-08-27,21.2894,0.11818603534074187
2021-08-30,21.2789,0.11220347782181177
2021-08-31,21.2208,0.1091977290539333
2021-09-01,21.3311,0.10925896632871471
2021-09-02,21.3527,0.10438902375489718
2021-09-03,21.4454,0.10373963354629182
2021-09-07,21.4176,0.0995207650159422
2021-09-08,21.3122,0.09984738918172316
2021-09-09,21.3563,0.09675031200496077
2021-09-10,21.2473,0.0974308502269075
2021-09-13,21.2584,0.09263469188096833
2021-09-14,21.3582,0.09303276455424778
2021-09-15,21.2051,0.09636983319012282
2021-09-16,21.313,0.09701039801289363
2021-09-17,21.3081,0.09189315367884393
2021-09-20,20.933,0.10762686736335263
2021-09-21,21.0997,0.11090870806538854
2021-09-22,21.32,0.11698600206175594
2021-09-23,21.4983,0.1203923352805473
2021-09-27,21.6542,0.12236498332051685
2021-09-28,21.2995,0.1352724842471549
2021-09-29,21.2225,0.13203512401120174
2021-09-30,21.1213,0.1303220615661349
2021-10-01,21.0433,0.12741528036801647
2021-10-04,20.8471,0.1312366536809043
2021-10-05,21.1208,0.13915128403196508
2021-10-06,21.0613,0.1347262126968559
2021-10-07,21.451,0.1488914231025862
2021-10-08,21.3497,0.14624745515244264
2021-10-11,21.4562,0.14403926319952917
2021-10-12,21.0103,0.1608093041328886
2021-10-14,21.2737,0.16650878723661708
2021-10-15,21.4813,0.1687916323901383
2021-10-18,21.631,0.16773098614624168
2021-10-19,21.7246,0.16361259802700595
2021-10-20,21.7752,0.1573341203588391
2021-10-21,21.6861,0.15354333589445923
2021-10-25,21.5757,0.1511464839003225
2021-10-26,21.5933,0.14372723479474891
2021-10-27,21.5117,0.14027572175059608
2021-10-28,21.6374,0.13946595943111845
2021-10-29,21.5119,0.13869007279605625
2021-11-01,21.7367,0.1434739576407197
2021-11-02,21.7082,0.13708651554956847
2021-11-03,21.7447,0.13149837579681467
2021-11-04,22.0257,0.13980402158588046
2021-11-05,22.1879,0.14104824260888701
2021-11-08,22.0833,0.1390233402417265
2021-11-09,21.9254,0.14007204356163067
2021-11-10,21.8677,0.1354958189193179
2021-11-11,21.8617,0.12830160675713356
2021-11-12,21.9875,0.12816262860395958
2021-11-15,21.8794,0.12704803812596185
2021-11-16,21.9031,0.12130648045229718
2021-11-17,21.8677,0.11653389820494729
2021-11-18,21.6727,0.12089312608245024
2021-11-19,21.7967,0.12106573018898092
2021-11-22,21.6842,0.12058985628959314
2021-11-23,21.5079,0.12368486427350471
2021-11-24,21.7088,0.12797459403608785
2021-11-26,21.3775,0.13927044992297183
2021-11-29,21.6923,0.14902209159391774
2021-11-30,21.3915,0.15745419761647783
2021-12-02,21.5558,0.1775844540467966
2021-12-03,21.2293,0.18585753993308585
2021-12-07,22.0923,0.22347656549235909
2021-12-08,21.9259,0.2203056451872282
2021-12-13,21.6307,0.21274577610836082
2021-12-15,21.2704,0.20888404103492691
2021-12-17,21.3734,0.21198916005893179
2021-12-20,21.1478,0.2127453178334356
2021-12-21,21.591,0.22554835573157814
2021-12-23,21.9844,0.22203140372353727
2021-12-27,22.133,0.21795188129445178
2021-12-28,22.1994,0.20953233233364899
2021-12-30,22.1416,0.1911078519889646
2022-01-04,21.9971,0.18851852687846662
2022-01-05,22.0184,0.17922860871855179
2022-01-06,21.8463,0.17883257490085447
2022-01-07,21.777,0.1727474318508069
2022-01-10,21.384,0.18498368563687326
2022-01-11,21.7919,0.19736792532371353
2022-01-13,21.88,0.18721614326713965
2022-01-14,21.5886,0.1930041353078541
2022-01-18,21.4142,0.19197057223519545
2022-01-19,21.2261,0.1917555404443514
2022-01-20,21.3211,0.18638023264188755
2022-01-21,20.7418,0.20820910860622718
2022-01-24,19.8193,0.24789193590588152
2022-01-25,19.9681,0.2423868283555548
2022-01-26,20.4173,0.25387644900246853
2022-01-28,20.3051,0.23306232642504127
2022-01-31,20.8537,0.2505921971792057
2022-02-01,21.055,0.24785374178036093
2022-02-02,21.1639,0.24013408945922987
2022-02-03,20.7555,0.24948219560038382
2022-02-04,20.5765,0.24556651806702925
2022-02-07,20.6856,0.23798504484108324
2022-02-09,20.9495,0.22869869740454657
2022-02-10,20.9793,0.2176487697709605
2022-02-11,20.6556,0.22354050478368487
2022-02-15,20.3656,0.22794970951384233
2022-02-17,20.0566,0.23245250342974005
2022-02-18,19.6128,0.24419403101697673
2022-02-22,19.611,0.23072769596047796
2022-02-23,19.4575,0.22643726840711814
2022-02-24,19.1411,0.23143519794005593
2022-02-25,19.8594,0.2584832424989417
2022-02-28,19.9585,0.24962861791566718
2022-03-01,19.5089,0.2607381391425746
2022-03-02,19.7266,0.2583471314124316
2022-03-03,19.5659,0.2529222907784077
2022-03-04,19.1172,0.26379883017960726
2022-03-07,18.9244,0.2598544507251847
2022-03-08,18.6702,0.2595403145737854
2022-03-09,19.3189,0.28116029709746393
2022-03-10,19.0448,0.2807680583698271
2022-03-11,19.1266,0.26971427734928116
2022-03-14,18.8099,0.2723245952743211
2022-03-15,18.9973,0.26760656220352547
2022-03-16,19.5972,0.28606730874777414
2022-03-17,19.886,0.28621912492845325
2022-03-18,20.3145,0.2941236179879836
2022-03-21,20.275,0.2799778614330956
2022-03-22,20.6471,0.28509575802014586
2022-03-23,20.5929,0.2722682159079154
2022-03-24,20.6273,0.25905331502414236
2022-03-25,20.6418,0.2454670197450232
2022-03-28,20.6845,0.2342021853147441
2022-03-29,21.2416,0.25214095279725823
2022-03-30,21.0594,0.24825534430852153
2022-03-31,20.8398,0.2466633807358259
2022-04-01,20.6317,0.24452097069494674
2022-04-04,21.0046,0.251653138989672
2022-04-05,20.6385,0.25801129793469024
2022-04-07,19.9758,0.28049400360498533
2022-04-08,20.131,0.2735332256269306
2022-04-11,19.7698,0.27840360198099007
2022-04-12,19.8599,0.2679422907598239
2022-04-18,19.5397,0.27084549682872255
2022-04-19,19.8654,0.2738929692271269
2022-04-20,19.7488,0.26515447093673106
2022-04-21,19.6464,0.2561125558846904
2022-04-22,19.1821,0.2676785250022077
2022-04-25,18.8585,0.2707852736131961
2022-04-26,18.7031,0.2643749806346852
2022-04-27,18.7736,0.2536041483772026
2022-04-28,19.0335,0.2539539179118025
2022-04-29,19.2196,0.2501842558055912
2022-05-03,19.2128,0.23666290826083602
2022-05-05,18.7138,0.2512371911352342
2022-05-06,18.5497,0.2463962360721655
2022-05-09,18.0232,0.26195755629037865
2022-05-10,17.8993,0.2542876920520242
2022-05-11,18.114,0.25208837582691174
2022-05-12,17.6951,0.2613556882809722
2022-05-13,18.436,0.2879970389320294
2022-05-17,18.5193,0.27662498121358337
2022-05-18,18.205,0.2787180378128289
2022-05-19,18.2741,0.26707259126767185
2022-05-20,17.9687,0.26920189175280135
2022-05-23,18.2681,0.2708795644332014
2022-05-24,17.8512,0.2789918108535792
2022-05-25,18.0125,0.2724533769172693
2022-05-26,18.491,0.2839004115329766
2022-05-27,18.8733,0.2893670553367002
2022-05-31,18.9803,0.279235552262439
2022-06-01,18.8226,0.2724835771367478
2022-06-02,19.1498,0.27552337840692837
2022-06-06,19.2024,0.2631387462732102
2022-06-07,19.1356,0.25223103814692077
2022-06-08,19.3507,0.250168202694314
2022-06-09,19.0187,0.25471441365574105
2022-06-10,18.1674,0.2878580573415332
2022-06-13,17.3474,0.31742149860033697
2022-06-14,17.3357,0.3004369709003183
2022-06-15,17.5537,0.29585713918363393
2022-06-16,17.0506,0.30737063145120985
2022-06-17,17.1652,0.29666115192614256
2022-06-21,17.6143,0.30512997681913473
2022-06-22,17.577,0.29025053366251596
2022-06-23,17.6223,0.2766421706812649
2022-06-24,18.2843,0.29805093897675033
2022-06-27,18.3743,0.286492553478042
2022-06-28,18.0268,0.2898818560625952
2022-06-29,17.787,0.2870995307257845
2022-06-30,17.5839,0.2824328901299075
2022-07-01,17.4556,0.2738699517893571
2022-07-05,17.5152,0.26196606557883717
2022-07-06,17.7599,0.2610068397133461
2022-07-07,18.2324,0.27275645972927137
2022-07-08,18.346,0.2639144341887564
2022-07-11,17.9606,0.27066363228938106
2022-07-12,17.8981,0.25909898605108206
2022-07-14,17.5609,0.26343793127046633
2022-07-15,17.9773,0.27193582397766264
2022-07-18,18.3956,0.2800671670900149
2022-07-19,18.4846,0.2694523244739028
2022-07-20,18.9267,0.27904386200313047
2022-07-21,19.0424,0.2699692030029565
2022-07-22,18.9128,0.2621709139472367
2022-07-25,18.74,0.2572058631723903
2022-07-26,18.4312,0.2600722041072574
2022-07-27,18.8856,0.27086819276796537
2022-08-01,19.4191,0.28545884872530064
2022-08-02,19.348,0.2735500237961173
2022-08-03,19.7512,0.2807528002518887
2022-08-04,19.7412,0.2657109780156727
2022-08-05,19.4847,0.26519925701480196
2022-08-08,19.741,0.26470485384731296
2022-08-09,19.2317,0.2782934730780178
2022-08-10,19.8216,0.2956049467959057
2022-08-11,19.7764,0.2816935608627999
2022-08-15,20.0891,0.28341614081486655
2022-08-16,20.0188,0.2715763552140406
2022-08-17,19.6237,0.27843877992437166
2022-08-18,19.8698,0.27664218103968446
2022-08-19,19.4831,0.2827565043152576
2022-08-22,19.1963,0.28298114296440996
2022-08-23,19.1221,0.27138219057749835
2022-08-24,19.2277,0.2621720688787484
2022-08-25,19.3126,0.25232362060770686
2022-08-26,19.1224,0.2488723083517232
2022-08-29,18.8551,0.2498960689988496
2022-08-30,18.6477,0.24753517627669128
2022-08-31,18.7434,0.239099888705764
2022-09-01,18.2352,0.2540498948887773
2022-09-02,18.7491,0.2684860118394008
2022-09-06,18.3371,0.2764590111816563
2022-09-07,18.3378,0.2611390661160088
2022-09-08,18.5186,0.2566757846651193
2022-09-09,18.8887,0.26297712996150163
2022-09-12,19.1133,0.2608450671858626
2022-09-13,18.5507,0.27760923011998134
2022-09-14,18.5095,0.26447538400220455
2022-09-15,18.358,0.2581989737798598
2022-09-16,18.0471,0.2611268085698676
2022-09-19,18.0219,0.24801976364931944
2022-09-20,18.0923,0.23815199900213513
2022-09-21,18.0261,0.22859911016868326
2022-09-22,17.5194,0.24404915960375634
2022-09-23,17.1596,0.2504797618479921
2022-09-26,17.1823,0.23782533063421474
2022-09-27,17.1249,0.22780170115453618
2022-09-28,17.3527,0.22780160664595073
2022-09-29,17.081,0.2302404062767312
2022-09-30,17.114,0.21928260592802395
2022-10-03,17.1902,0.21133357226535596
2022-10-04,17.8937,0.23867615158394728
2022-10-05,17.6605,0.23837192094039467
2022-10-06,17.7693,0.23117348088815062
2022-10-07,17.3088,0.24391384306103114
2022-10-11,16.8811,0.2541241851131962
2022-10-12,16.726,0.24862284149579642
2022-10-17,17.2996,0.26667712807936345
2022-10-18,17.3413,0.2541783987416209
2022-10-19,17.3716,0.24174070992264196
2022-10-20,17.5269,0.236938448260273
2022-10-21,17.4885,0.22590853446803574
2022-10-25,17.9698,0.24009694921981165
2022-10-26,18.0145,0.22924156315204444
2022-10-27,17.688,0.2346448096435977
2022-10-28,17.6843,0.2218145424411755
2022-10-31,17.7066,0.21073040119444356
2022-11-01,17.7244,0.20001204557252986
2022-11-02,17.4602,0.20357804304072258
2022-11-03,16.9712,0.2194348184273492
2022-11-04,16.8251,0.21536066184805203
2022-11-07,17.0393,0.21529618063427144
2022-11-08,17.5462,0.2314963928212563
2022-11-09,17.0677,0.2452188154422977
2022-11-10,17.9556,0.28092332569550355
2022-11-14,18.2281,0.2804553631568645
2022-11-15,18.5179,0.2809745096481498
2022-11-16,18.1012,0.28851481466769713
2022-11-17,17.9135,0.28291399163060277
2022-11-18,17.8617,0.2700743254289026
2022-11-21,17.7355,0.2620813073495191
2022-11-22,17.7864,0.25034901249676816
2022-11-23,18.0805,0.2527796229136144
2022-11-25,18.0376,0.24111964386285797
2022-11-28,17.7798,0.24204633031492137
2022-11-29,17.568,0.2403659786307591
2022-11-30,17.6523,0.23169564648460572
2022-12-01,18.2147,0.25006811056879436
2022-12-02,18.1452,0.24003654887052808
2022-12-06,17.6811,0.2524845183777209
2022-12-07,17.4826,0.2494853784678475
2022-12-08,17.6519,0.24503063521963372
2022-12-09,17.8114,0.24027893326298724
2022-12-13,18.1528,0.2458967703039324
2022-12-14,18.1096,0.23463583862038048
2022-12-15,17.4572,0.25784495869702606
2022-12-16,17.1758,0.2591535721027469
2022-12-19,17.0187,0.2534839292081499
2022-12-20,16.9827,0.24140148869658584
2022-12-21,17.1699,0.23839029488010868
2022-12-22,16.7374,0.2491741673867692
2022-12-23,16.8174,0.23977560253194855
2022-12-27,16.7952,0.22768806905795128
2022-12-28,16.6152,0.22503873188806509
2022-12-29,16.9416,0.23066991344983923
2022-12-30,16.7797,0.2268493627026261
2023-01-03,16.8403,0.21761328699692467
2023-01-04,17.0682,0.21818477105265116
2023-01-05,16.8442,0.2185078393275039
2023-01-06,17.1677,0.22434073714264252
2023-01-09,17.58,0.23478291841249566
2023-01-10,17.4044,0.2314949785006903
2023-01-11,17.5819,0.2284952574728743
2023-01-12,17.8024,0.22805107650215897
2023-01-13,17.7484,0.21838157225203894
2023-01-17,17.8821,0.21367704046025907
2023-01-18,17.8637,0.20282831599024465
2023-01-19,17.6024,0.20607674287967562
2023-01-20,17.8271,0.2071113682752493
2023-01-23,18.343,0.22426629225995764
2023-01-24,18.297,0.2143626093566266
2023-01-25,18.1108,0.2127980199479251
2023-01-26,18.3831,0.2161036855063736
2023-01-27,18.6299,0.21780903631157508
2023-01-30,18.4432,0.21608075651648748
2023-01-31,18.5087,0.20771515893223816
2023-02-01,18.5653,0.19931987232489154
2023-02-02,19.3844,0.23375210164017537
2023-02-03,19.3356,0.22347698488238782
2023-02-06,19.0981,0.22425604127781076
2023-02-07,19.0887,0.21231959454015456
2023-02-08,19.1291,0.2027685059545905
2023-02-09,19.2226,0.19669803340155761
2023-02-10,18.8824,0.20467036487924883
2023-02-13,19.0783,0.20418312238595712
2023-02-14,19.0211,0.19601739336451493
2023-02-15,19.2847,0.1997719826220419
2023-02-16,19.3285,0.19110687247637276
2023-02-17,18.9505,0.201489824005463
2023-02-21,18.6793,0.20536261156071509
2023-02-22,18.5571,0.20074246647400884
2023-02-23,18.5383,0.19063455166989715
2023-02-24,18.4366,0.1856937432437918
2023-02-27,18.6691,0.188294090841359
2023-02-28,18.6904,0.1790166413501724
2023-03-01,18.6586,0.1708379390529406
2023-03-02,18.6065,0.16424138688333273
2023-03-03,19.0161,0.1778724209453699
2023-03-07,18.8695,0.17613506422618283
2023-03-08,19.0083,0.17406089399139488
2023-03-09,19.0026,0.16470751099187275
2023-03-10,18.594,0.1782570937145465
2023-03-13,18.3387,0.1825372551748496
2023-03-14,18.5699,0.18524074099846913
2023-03-15,18.2117,0.19484958872077643
2023-03-16,18.7226,0.2124079449029555
2023-03-17,18.6382,0.20529639240834677
2023-03-20,18.6328,0.1941910372745498
2023-03-21,18.8766,0.19694709075929706
2023-03-22,18.9515,0.19016669682822496
2023-03-23,19.031,0.18401854700443462
2023-03-24,18.7715,0.18821196105974378
2023-03-27,18.8263,0.18080018544531357
2023-03-28,18.7912,0.17270573069835166
2023-03-29,19.0321,0.1764943012151099
2023-03-30,19.3749,0.18573350670315938
2023-03-31,19.5261,0.18381497855298382
2023-04-03,19.5159,0.17416970196670697
2023-04-04,19.4264,0.1694658296352231
2023-04-05,19.0665,0.18004550576659958
2023-04-07,19.216,0.1783485332240107
2023-04-10,19.1269,0.17339028137823242
2023-04-11,19.1659,0.16592415463499735
2023-04-12,19.1413,0.1580728127108308
2023-04-17,19.2623,0.15601321200467344
2023-04-18,19.2437,0.1483791446710804
2023-04-19,19.2303,0.14088030330046483
2023-04-20,19.1551,0.13723139756155006
2023-04-21,19.0866,0.13341298658590842
2023-04-24,18.9589,0.1330955984422469
2023-04-25,18.771,0.13614028741767756
2023-04-26,18.7548,0.12947693811669553
2023-04-27,18.8175,0.12576710822132353
2023-04-28,18.9826,0.1279522688756946
2023-05-02,18.7767,0.13228269838260046
2023-05-03,18.8378,0.1283281040280115
2023-05-08,18.9578,0.12786543158201072
2023-05-09,18.8245,0.1281673520496767
2023-05-10,18.8839,0.12434694360247242
2023-05-11,18.8442,0.11964433562455726
2023-05-12,18.8587,0.11380298364541508
2023-05-15,18.9155,0.11063615122066994
2023-05-16,19.0467,0.11177858726396606
2023-05-17,19.2204,0.11521866574930129
2023-05-18,19.5422,0.12669540654100678
2023-05-19,19.6101,0.1234289950665063
2023-05-22,19.7062,0.1219107175628115
2023-05-23,19.6829,0.11643234436487745
2023-05-24,19.2722,0.13278054745571755
2023-05-25,19.4096,0.13303718370817766
2023-05-26,19.8978,0.15276845127994557
2023-05-30,20.0025,0.1500979817643931
2023-05-31,19.7938,0.15335364944414906
2023-06-01,20.0954,0.16158955780836304
2023-06-02,20.2376,0.1605123601523428
2023-06-06,20.3553,0.1581338956994348
2023-06-07,20.2254,0.15656534593835505
2023-06-08,20.2482,0.14913393783066867
2023-06-09,20.2037,0.14332094128452036
2023-06-12,20.3914,0.14578644454649145
2023-06-13,20.7126,0.15553164207168624
2023-06-14,20.8309,0.1534632175121482
2023-06-15,20.9205,0.14991526098369554
2023-06-16,20.9084,0.14225885759571244
2023-06-20,20.5801,0.1525944766181728
2023-06-21,20.4203,0.15299478347271878
2023-06-22,20.5073,0.14932840661312327
2023-06-23,20.3077,0.15212127291239422
2023-06-26,20.4082,0.14925342441726122
2023-06-27,20.4924,0.14563934528296887
2023-06-28,20.7645,0.15266493721169294
2023-06-29,20.7526,0.14484466292215448
2023-06-30,20.919,0.14604218164870142
2023-07-03,20.9637,0.14041206044599572
2023-07-05,20.8026,0.14156139042121807
2023-07-06,20.4746,0.1519190909533728
2023-07-07,20.7724,0.1600235859004078
2023-07-10,20.7469,0.15255005335038516
2023-07-11,20.8328,0.14884727260869704
2023-07-12,21.1358,0.15741131301932504
2023-07-13,21.3765,0.16203846229602925
2023-07-14,21.3661,0.1536141032795832
2023-07-17,21.3553,0.14567998643071742
2023-07-18,21.2847,0.14150887607345528
2023-07-19,21.4241,0.14139171629159655
2023-07-20,21.0582,0.1538643987198412
2023-07-21,21.0654,0.14571637656873895
2023-07-24,21.0988,0.13947657787047568
2023-07-25,21.219,0.1384056568776715
2023-07-26,21.1843,0.1326442314955787
2023-07-27,21.387,0.1365362186347132
2023-07-31,21.4746,0.1338175398216735
2023-08-02,20.9217,0.15709989872046934
2023-08-03,20.8855,0.1503832376804433
2023-08-04,21.2005,0.15952861336486318
2023-08-07,21.0895,0.1568325792890375
2023-08-08,20.7977,0.16433076932853555
2023-08-09,20.8506,0.15814017103250583
2023-08-10,21.0281,0.15921571708625543
2023-08-11,20.7465,0.16601484391479665
2023-08-15,20.7425,0.15701401925286357
2023-08-16,20.5725,0.15773546262770438
2023-08-17,20.4073,0.1581501591483876
2023-08-18,20.2645,0.15729737252903261
2023-08-21,20.1672,0.1539641851663086
2023-08-22,20.3218,0.1539995082126247
2023-08-23,20.5476,0.15798842442303443
2023-08-24,20.3251,0.16157240084397698
2023-08-25,20.2739,0.15544060079708924
2023-08-28,20.5933,0.16454945630836199
2023-08-29,20.8569,0.1700522642912308
2023-08-30,20.9574,0.16618824960838466
2023-08-31,20.9995,0.15929445796347444
2023-09-01,21.1256,0.15745032140994794
2023-09-05,21.2103,0.15340863688717313
2023-09-06,21.1019,0.15090815706010793
2023-09-07,20.8639,0.1557465927789908
2023-09-08,20.9238,0.1504217820690468
2023-09-11,20.9453,0.1432594608429886
2023-09-12,20.9433,0.13541171301837804
2023-09-13,20.9336,0.1284277289618016
2023-09-14,21.0669,0.12869841068614607
2023-09-15,20.9468,0.12822072120358244
2023-09-18,20.8606,0.1258862366922722
2023-09-19,20.7652,0.12419255687603492
2023-09-20,20.9091,0.12528741482736624
2023-09-21,20.4712,0.14265478067029033
2023-09-22,20.5178,0.1373184039663854
2023-09-25,20.4339,0.13435071485714176
2023-09-26,20.2129,0.13916456403174501
2023-09-27,20.1769,0.1334331993633148
2023-09-28,20.3991,0.13836468828757514
2023-09-29,20.4907,0.1357666500493765
2023-10-02,20.4064,0.13290739171329996
2023-10-03,20.1602,0.13920142550700562
2023-10-04,20.2483,0.13636245742328312
2023-10-05,20.1154,0.13617009867754515
2023-10-06,20.4724,0.14843842652879263
2023-10-10,20.7106,0.15342518061052635
2023-10-11,20.5555,0.15351822613216382
2023-10-12,20.5742,0.14602832468037708
2023-10-16,20.3873,0.1482989733092451
2023-10-17,20.436,0.14276569701428704
2023-10-18,20.1682,0.14971204718016007
2023-10-19,20.2274,0.14468360011459563
2023-10-20,19.917,0.15389006677489578
2023-10-24,19.8168,0.1509072852874016
2023-10-25,19.4526,0.16275688054921267
2023-10-26,19.2232,0.1664592760742565
2023-10-27,19.2847,0.16062820518124235
2023-10-30,19.2246,0.15504330489339566
2023-10-31,19.392,0.15572978795487372
2023-11-01,19.5411,0.15536146640182522
2023-11-02,19.9661,0.1703413849350572
2023-11-03,20.3211,0.18060019688310963
2023-11-06,20.2085,0.17682240816738132
2023-11-07,20.3594,0.1753822743803046
2023-11-08,20.3775,0.16664437024806547
2023-11-09,20.6342,0.17164746078983956
2023-11-10,20.6447,0.16269482407929292
2023-11-13,20.8842,0.16696177829710998
2023-11-14,21.3793,0.18519167950282617
2023-11-15,21.3871,0.17533658619711356
2023-11-16,21.2154,0.17513455363060731
2023-11-17,21.2404,0.16679374509557368
2023-11-20,21.4142,0.16718298147915292
2023-11-21,21.3591,0.16095614917475548
2023-11-22,21.4464,0.156864140887269
2023-11-24,21.5322,0.15291613306019844
2023-11-27,21.4391,0.14959301455685406
2023-11-28,21.4942,0.14434340263702877
2023-11-29,21.6383,0.14432988026830504
2023-11-30,21.6318,0.13667266469784378
2023-12-01,21.8779,0.14275196110351926
2023-12-04,21.7515,0.14184351881999044
2023-12-06,21.9659,0.14587443444110215
2023-12-07,21.9675,0.1378591880832631
2023-12-08,22.1284,0.13913923318974838
2023-12-12,22.4025,0.14663705356809573
2023-12-13,22.4155,0.1392127728143127
2023-12-14,22.7654,0.15091761876907303
2023-12-15,22.6928,0.14656663994856906
2023-12-18,22.6405,0.1413296043958707
2023-12-19,22.8037,0.14254462637387788
2023-12-20,22.8418,0.13674214713088464
2023-12-21,22.726,0.13557869451250218
2023-12-22,22.7732,0.1306687670395854
2023-12-26,22.8413,0.12719272442627516
2023-12-27,22.874,0.12194312862481532
2023-12-28,22.8864,0.11585739925677
2024-01-02,22.4984,0.1309764326313938
2024-01-03,22.1922,0.14071107526298307
2024-01-04,22.2264,0.13479379330392857
2024-01-05,22.2257,0.12734413812037707
2024-01-08,22.5597,0.13882501933591168
2024-01-09,22.5414,0.13212918492836104
2024-01-10,22.5454,0.12501089687678546
2024-01-11,22.4972,0.12074362482807521
2024-01-12,22.7846,0.1300023123376267
2024-01-16,22.6526,0.13011329498553642
2024-01-17,22.3969,0.13709033415300667
2024-01-18,22.7521,0.149207537811173
2024-01-19,22.9155,0.14999600793277465
2024-01-22,23.2543,0.16048511860317605
2024-01-23,23.3233,0.15540261201411065
2024-01-24,23.6123,0.16282468912443795
2024-01-25,23.6072,0.1540622063953026
2024-01-26,23.5405,0.14920875048445228
2024-01-29,23.4308,0.1470138199019827
2024-01-30,23.3786,0.1417463854629838
2024-01-31,23.1647,0.14575491960392908
2024-02-01,23.0965,0.1414463129592664
2024-02-02,23.179,0.1381715177948627
2024-02-05,23.279,0.13605087791737042
2024-02-06,23.4171,0.13616471803307215
2024-02-07,23.5118,0.13386112258679034
2024-02-08,23.7732,0.14094661577641301
2024-02-09,23.9424,0.14251624823327896
2024-02-12,24.113,0.14407645666476349
2024-02-13,23.6009,0.16452220907227666
2024-02-14,23.8233,0.16773764190159465
2024-02-15,24.0424,0.170591106240395
2024-02-16,24.0681,0.16254160033815085
2024-02-20,23.8208,0.16725040031936486
2024-02-21,23.7238,0.16334760030162224
2024-02-22,24.0978,0.17505051139597652
2024-02-23,24.2599,0.17433103854064444
2024-02-27,24.1878,0.16865153639949745
2024-02-28,24.1317,0.16239867326619206
2024-02-29,24.1193,0.15406541364029244
2024-03-01,24.3698,0.15942289066027635
2024-03-04,24.3971,0.15208273006803857
2024-03-05,24.0703,0.1617892450642586
2024-03-06,24.2991,0.1655120647829109
2024-03-07,24.3383,0.15849472785052698
2024-03-08,24.2842,0.15269502074772
2024-03-11,24.2083,0.14842863070617984
2024-03-12,24.4738,0.15493259566694761
2024-03-13,24.5241,0.1491196736854505
2024-03-14,24.3302,0.15160746959181434
2024-03-15,24.1601,0.1526348323922692
2024-03-18,24.3485,0.1546217861482543
2024-03-19,24.3341,0.14683168691779583
2024-03-20,24.4634,0.14585770431125164
2024-03-21,24.8959,0.16178227629395997
2024-03-22,24.8614,0.15471103872207337
2024-03-25,24.7706,0.15116042545973582
2024-03-26,24.7852,0.14357373515641705
2024-03-27,24.8008,0.1364640832032827
2024-03-28,24.9381,0.13651052302532254
2024-04-01,24.8756,0.1323988273016935
2024-04-02,24.841,0.12696555911826593
2024-04-03,25.0499,0.1315174725005845
2024-04-04,25.2204,0.13368316847277426
2024-04-05,24.8825,0.14502854800206466
2024-04-09,24.9341,0.13983807311306107
2024-04-10,24.6902,0.14561929127344658
2024-04-11,24.8301,0.14530155286936625
2024-04-17,23.9862,0.18411257770995718
2024-04-18,24.0151,0.17548965672607064
2024-04-19,23.6597,0.1854846757968445
2024-04-22,23.7437,0.17984663825257532
2024-04-23,24.164,0.19320515834965454
2024-04-24,24.2995,0.189999316219118
2024-04-25,23.9973,0.1962326875402781
2024-04-26,24.44,0.20992531601026276
2024-04-29,24.4886,0.20096279845413706
2024-04-30,24.3455,0.19774819854001835
2024-05-02,24.3068,0.18891218751001743
2024-05-03,24.667,0.1984281770927944
2024-05-07,24.9607,0.20372105614319458
2024-05-08,24.9967,0.19440321969079494
2024-05-09,25.0333,0.1856363741524174
2024-05-10,25.0044,0.17692879781061643
2024-05-13,25.2027,0.17811608682113772
2024-05-14,25.2531,0.17102074866440783
2024-05-15,25.5164,0.17614737373860745
2024-05-16,25.5216,0.1666502974197958
2024-05-17,25.4574,0.16095861422980712
2024-05-20,25.446,0.15264980232815104
2024-05-21,25.4478,0.1442692577543648
2024-05-23,25.5432,0.1415542989902333
2024-05-24,25.5137,0.13532906015744248
2024-05-28,25.5593,0.13034411237091792
2024-05-29,25.2156,0.1421972172392004
2024-05-30,25.0721,0.1422695940592448
2024-05-31,24.8326,0.14767128327817564
2024-06-04,25.0037,0.14897287865161027
2024-06-05,25.359,0.1604354965042988
2024-06-06,25.4628,0.15728908003183772
2024-06-07,25.4203,0.15091190891895784
2024-06-10,25.5092,0.14746680286790456
2024-06-11,25.3729,0.14684642493079866
2024-06-12,25.9179,0.16896606799019867
2024-06-13,25.59,0.17779573087963207
2024-06-14,25.5725,0.16889041249743017
2024-06-17,25.6094,0.16155761180312844
2024-06-18,25.8088,0.16365996670295468
2024-06-20,25.8737,0.15817330188612375
2024-06-21,25.7761,0.15480811844800574
2024-06-24,25.9143,0.1538854452008944
2024-06-25,25.7939,0.1520251426897336
2024-06-26,25.9235,0.15077930142919285
2024-06-27,26.0638,0.1501971180164599
2024-06-28,26.1397,0.14606950034887883
2024-07-01,26.0162,0.14481563921838556
2024-07-02,26.2037,0.14718699259514192
2024-07-03,26.4851,0.15464327078430062
2024-07-05,26.5999,0.1524297557407285
2024-07-08,26.6029,0.14412810264402134
2024-07-09,26.4286,0.14580431916379807
2024-07-10,26.5579,0.1448874125435871
2024-07-11,26.6998,0.14472144518005448
2024-07-12,26.8896,0.14722580933671822
2024-07-15,26.9451,0.14212993104023378
2024-07-16,26.9772,0.1360171570935541
2024-07-17,26.6033,0.14923287058835663
2024-07-18,26.338,0.15568104444455905
2024-07-19,26.1762,0.15602098641986129
2024-07-23,26.3917,0.15932537606320227
2024-07-24,25.8074,0.18293507739302436
2024-07-25,25.6217,0.18308868420452307
2024-07-26,25.7325,0.1790726461931607
2024-07-30,25.6254,0.17507416584909638
2024-07-31,25.9372,0.1826700455241467
2024-08-01,25.4873,0.19751615410613854
2024-08-02,24.5461,0.2388319233224644
2024-08-05,23.9527,0.2585301498045497
2024-08-06,24.1995,0.2578784748154081
2024-08-07,24.6099,0.26635189288121874
2024-08-08,24.4816,0.25868234327670653
2024-08-09,24.491,0.2448333242057783
2024-08-13,24.8703,0.25230369508323514
2024-08-14,24.9113,0.2405646009119443
2024-08-15,25.3578,0.2520054564168363
2024-08-16,25.485,0.2450718199492342
2024-08-19,25.4243,0.23482894106316565
2024-08-20,25.3452,0.22617733322632314
2024-08-21,25.483,0.2212674813804164
2024-08-22,25.4503,0.21079151019261558
2024-08-23,25.634,0.2092864262930259
2024-08-26,25.476,0.20643718038785788
2024-08-27,25.543,0.19869067036631022
2024-08-28,25.3442,0.19869674423484845
2024-08-29,25.6244,0.20322470288846803
2024-08-30,25.399,0.2044566638391087
2024-09-03,25.1582,0.20647573807026934
2024-09-04,24.9651,0.20573264151080997
2024-09-05,24.6546,0.21155305031576505
2024-09-06,24.2402,0.22282232529822238
2024-09-09,24.5264,0.22634330722609874
2024-09-10,24.3512,0.22350201238020437
2024-09-11,24.3266,0.2124519005813041
2024-09-12,24.7496,0.2241490172156762
2024-09-13,24.881,0.21899629403702747
2024-09-16,24.6672,0.21870761103497033
2024-09-17,24.898,0.21937941042191636
2024-09-18,24.688,0.2188583320651433
2024-09-19,25.182,0.23414398028374647
2024-09-20,25.0064,0.23089153693464937
2024-09-23,25.0945,0.22295867377161332
2024-09-24,25.2242,0.217777636339857
2024-09-25,25.1199,0.21147332320986487
2024-09-26,25.3885,0.21464702747598344
2024-09-27,25.4019,0.20346663706065105
2024-09-30,25.0985,0.20901849055728156
2024-10-01,25.0918,0.19777857441521046
2024-10-02,25.3459,0.20090754250325438
2024-10-03,25.4585,0.19600156791974027
2024-10-04,25.6112,0.19359592525753244
2024-10-07,25.706,0.18810726274322503
2024-10-08,25.6561,0.18042908147971257
2024-10-09,25.7859,0.1776163547308398
2024-10-10,25.7507,0.16970433502357107
2024-10-11,25.8111,0.16363187196670606
2024-10-15,25.8121,0.1545967679685558
2024-10-16,25.706,0.15190250308141387
2024-10-17,25.8325,0.1504912529102242
2024-10-18,25.8951,0.14560840552632281
2024-10-21,25.8674,0.13905793855263818
2024-10-22,25.8626,0.13159916418860268
2024-10-24,25.7842,0.12864365506701375
2024-10-25,26.0447,0.1359690075632908
2024-10-28,26.0942,0.13116517380977474
2024-10-29,26.1784,0.1285559974870094
2024-10-30,25.9968,0.13150288651550887
2024-10-31,25.5107,0.15120272615353622
2024-11-01,25.7674,0.15706368581167304
2024-11-04,25.6099,0.15708792548880227
2024-11-05,25.8039,0.15913859629497987
2024-11-06,26.2585,0.17555311872303675
2024-11-07,26.7182,0.19133905657175684
2024-11-08,26.4298,0.1967313312066592
2024-11-12,26.3792,0.1886129239174003
2024-11-13,26.3815,0.17826220592198905
2024-11-14,26.509,0.1754420833707675
2024-11-15,26.0108,0.1933730787390583
2024-11-18,26.1537,0.19056901880911065
2024-11-19,25.9993,0.1885596288752711
2024-11-20,26.02,0.1792340939377559
2024-11-21,26.1015,0.1738044220523251
2024-11-22,26.236,0.1716208430494181
2024-11-25,26.4793,0.17560301843556145
2024-11-26,26.5265,0.1684695174113636
2024-11-27,26.2935,0.17205454422184321
2024-11-29,26.3597,0.1661737362095185
2024-12-02,26.6671,0.17401963975343424
2024-12-03,26.6104,0.1675018819893547
2024-12-04,26.833,0.17056288854550167
2024-12-06,26.7861,0.1636927280707514
2024-12-09,26.9552,0.16399313206682078
2024-12-11,26.8437,0.16107684695199756
2024-12-12,26.845,0.15220035545466437
2024-12-13,26.7916,0.1467114468182941
2024-12-16,26.8073,0.13943303310616678
2024-12-17,26.905,0.13711453126693526
2024-12-18,26.9216,0.1304192795298833
2024-12-19,26.4037,0.15194598622266767
2024-12-20,26.5311,0.15058232032140823
2024-12-23,26.3147,0.15423885808133
2024-12-24,26.4968,0.15578669929903402
2024-12-26,26.5995,0.15283743822686538
2024-12-27,26.2037,0.16633535832537277
2024-12-30,26.0276,0.16687783841840773

